# data from www.luxpop.com database
# ;  Optical constants for HgTe
# ; 
# ;   taken from:
# ;
# ;   'Handbook of Optical Constants of Solids II', Ed. by Edward D. Palik,
# ;   Academic Press, Inc., 1991.
# ;   
# ;    Lambda (A)            n            k
# ;-----------------------------------------
300.921997 1.782000
302.243011 1.771000
303.575012 1.761000
304.919006 1.752000
306.274994 1.744000
307.643005 1.736000
309.023010 1.729000
310.415985 1.722000
311.821014 1.716000
313.238983 1.711000
314.670013 1.706000
316.113983 1.701000
317.571991 1.697000
319.042999 1.693000
320.610016 1.690000
322.110016 1.687000
323.623016 1.684000
325.151001 1.681000
326.692993 1.679000
328.250000 1.677000
329.821991 1.675000
331.409027 1.674000
333.011017 1.673000
334.628998 1.672000
336.263000 1.672000
337.912018 1.671000
339.578003 1.671000
341.261017 1.671000
343.055023 1.672000
344.772003 1.673000
346.506012 1.674000
348.258026 1.675000
350.028015 1.677000
351.816010 1.679000
353.622009 1.681000
355.446991 1.683000
357.290985 1.686000
359.154022 1.689000
361.037018 1.692000
362.938995 1.696000
364.862030 1.699000
366.805023 1.703000
368.878021 1.707000
370.864990 1.712000
372.872009 1.716000
374.902008 1.722000
376.953003 1.727000
379.028015 1.732000
381.125000 1.738000
383.246002 1.743000
385.389984 1.750000
387.559021 1.756000
389.752014 1.763000
391.970001 1.770000
394.212982 1.777000
396.482025 1.784000
398.906006 1.792000
401.230011 1.800000
403.581024 1.808000
405.959015 1.816000
408.365997 1.825000
410.802002 1.834000
413.266998 1.844000
415.760986 1.853000
418.285980 1.863000
420.842010 1.873000
423.429016 1.883000
426.048004 1.893000
428.700012 1.904000
431.535004 1.914000
434.256012 1.924000
437.010986 1.933000
439.800995 1.940000
442.627991 1.945000
445.489990 1.946000
448.391022 1.942000
451.329010 1.932000
454.306000 1.917000
457.322021 1.898000
460.378998 1.877000
463.477020 1.856000
466.616028 1.833000
469.799042 1.812000
473.206024 1.791000
476.479980 1.771000
479.799042 1.753000
483.164032 1.736000
486.577972 1.721000
490.040009 1.707000
493.550995 1.695000
497.113007 1.683000
500.727020 1.674000
504.394012 1.665000
508.114990 1.658000
511.891022 1.653000
515.724060 1.647000
519.614014 1.644000
523.785034 1.641000
527.799011 1.641000
531.875000 1.640000
536.014038 1.642000
540.218018 1.645000
544.487976 1.649000
548.827026 1.653000
553.235046 1.660000
557.715027 1.668000
562.268005 1.677000
566.895020 1.687000
571.600037 1.696000
576.382996 1.700000
581.247009 1.694000
586.471008 1.670000
591.507996 1.626000
596.631042 1.569000
601.845032 1.507000
607.150024 1.443000
612.549011 1.382000
618.046021 1.325000
623.642029 1.272000
629.340027 1.222000
635.143005 1.176000
641.054993 1.134000
647.077026 1.094000
653.214050 1.058000
659.468018 1.024000
666.200989 0.992300
672.708008 0.964200
679.341980 0.935800
686.110046 0.910700
693.013000 0.886300
700.056030 0.863300
707.245056 0.841900
714.581970 0.822600
722.072998 0.802400
729.723022 0.782800
737.537048 0.764400
745.520020 0.747400
753.677979 0.735100
762.016052 0.722500
771.020020 0.709700
779.747986 0.695700
788.677002 0.686400
797.812012 0.671600
807.161011 0.660000
816.733032 0.655200
826.533020 0.638200
