# data from www.luxpop.com database
# ;  Optical constants for HgTe
# ; 
# ;   taken from:
# ;
# ;   'Handbook of Optical Constants of Solids II', Ed. by Edward D. Palik,
# ;   Academic Press, Inc., 1991.
# ;   
# ;    Lambda (A)            n            k
# ;-----------------------------------------
300.921997 2.481000
302.243011 2.480000
303.575012 2.479000
304.919006 2.478000
306.274994 2.476000
307.643005 2.475000
309.023010 2.474000
310.415985 2.473000
311.821014 2.471000
313.238983 2.470000
314.670013 2.470000
316.113983 2.469000
317.571991 2.468000
319.042999 2.468000
320.610016 2.467000
322.110016 2.467000
323.623016 2.467000
325.151001 2.467000
326.692993 2.467000
328.250000 2.466000
329.821991 2.467000
331.409027 2.467000
333.011017 2.467000
334.628998 2.467000
336.263000 2.468000
337.912018 2.469000
339.578003 2.470000
341.261017 2.470000
343.055023 2.472000
344.772003 2.473000
346.506012 2.474000
348.258026 2.476000
350.028015 2.478000
351.816010 2.480000
353.622009 2.481000
355.446991 2.484000
357.290985 2.487000
359.154022 2.489000
361.037018 2.492000
362.938995 2.495000
364.862030 2.499000
366.805023 2.502000
368.878021 2.506000
370.864990 2.510000
372.872009 2.515000
374.902008 2.520000
376.953003 2.525000
379.028015 2.530000
381.125000 2.536000
383.246002 2.542000
385.389984 2.548000
387.559021 2.555000
389.752014 2.563000
391.970001 2.570000
394.212982 2.578000
396.482025 2.587000
398.906006 2.596000
401.230011 2.606000
403.581024 2.616000
405.959015 2.627000
408.365997 2.639000
410.802002 2.651000
413.266998 2.664000
415.760986 2.678000
418.285980 2.694000
420.842010 2.710000
423.429016 2.727000
426.048004 2.746000
428.700012 2.768000
431.535004 2.790000
434.256012 2.816000
437.010986 2.844000
439.800995 2.874000
442.627991 2.908000
445.489990 2.945000
448.391022 2.983000
451.329010 3.020000
454.306000 3.056000
457.322021 3.088000
460.378998 3.115000
463.477020 3.138000
466.616028 3.159000
469.799042 3.175000
473.206024 3.190000
476.479980 3.203000
479.799042 3.214000
483.164032 3.223000
486.577972 3.231000
490.040009 3.239000
493.550995 3.245000
497.113007 3.252000
500.727020 3.259000
504.394012 3.265000
508.114990 3.272000
511.891022 3.279000
515.724060 3.287000
519.614014 3.294000
523.785034 3.303000
527.799011 3.313000
531.875000 3.324000
536.014038 3.335000
540.218018 3.349000
544.487976 3.364000
548.827026 3.382000
553.235046 3.402000
557.715027 3.425000
562.268005 3.454000
566.895020 3.488000
571.600037 3.532000
576.382996 3.586000
581.247009 3.650000
586.471008 3.719000
591.507996 3.785000
596.631042 3.838000
601.845032 3.876000
607.150024 3.901000
612.549011 3.917000
618.046021 3.925000
623.642029 3.929000
629.340027 3.929000
635.143005 3.924000
641.054993 3.919000
647.077026 3.911000
653.214050 3.903000
659.468018 3.892000
666.200989 3.882000
672.708008 3.870000
679.341980 3.860000
686.110046 3.848000
693.013000 3.837000
700.056030 3.826000
707.245056 3.815000
714.581970 3.805000
722.072998 3.795000
729.723022 3.786000
737.537048 3.776000
745.520020 3.767000
753.677979 3.756000
762.016052 3.747000
771.020020 3.738000
779.747986 3.729000
788.677002 3.719000
797.812012 3.711000
807.161011 3.702000
816.733032 3.691000
826.533020 3.685000
